Time	X-ray (ID 01) / Impulse Imp	X-ray (ID 01) / Voltage U	X-ray (ID 01) / Current I	X-ray (ID 01) / Detector angle ? _d	X-ray (ID 01) / Crystal angle ? _c
t/s	Imp/# / s	U/kV	I/mA	? _d/°	? _c/°

0.00	12	25.0	1.00	12.0	6.0
60.00	23	25.0	1.00	14.0	7.0
120.00	204	25.0	1.00	16.0	8.0
180.00	335	25.0	1.00	18.0	9.0
240.00	433	25.0	1.00	20.0	10.0
300.00	515	25.0	1.00	22.0	11.0
360.00	487	25.0	1.00	24.0	12.0
420.00	479	25.0	1.00	26.0	13.0
480.00	326	25.0	1.00	28.0	14.0
540.00	295	25.0	1.00	30.0	15.0
600.00	265	25.0	1.00	32.0	16.0
